angle;output
-25.0;-0.94278294
-24.5;-0.9427829
-24.0;-0.9427829
-23.5;-0.9427827
-23.0;-0.94278246
-22.5;-0.94278204
-22.0;-0.9427815
-21.5;-0.9427805
-21.0;-0.942779
-20.5;-0.94277674
-20.0;-0.942773
-19.5;-0.94276696
-19.0;-0.94275767
-18.5;-0.94274276
-18.0;-0.94271934
-17.5;-0.942682
-17.0;-0.9426228
-16.5;-0.9425288
-16.0;-0.9423789
-15.5;-0.94213974
-15.0;-0.94175565
-14.5;-0.94113404
-14.0;-0.9401161
-13.5;-0.9384183
-13.0;-0.9355108
-12.5;-0.93034685
-12.0;-0.920753
-11.5;-0.90213716
-11.0;-0.86557037
-10.5;-0.79912716
-10.0;-0.7035741
-9.5;-0.60907006
-9.0;-0.5445711
-8.5;-0.5094905
-8.0;-0.491741
-7.5;-0.4826169
-7.0;-0.47769973
-6.5;-0.4749004
-6.0;-0.47318727
-5.5;-0.47196704
-5.0;-0.47073805
-4.5;-0.46871403
-4.0;-0.46386713
-3.5;-0.44901302
-3.0;-0.39415103
-2.5;-0.23322023
-2.0;-0.07390717
-1.5;-0.020384073
-1.0;-0.006007962
-0.5;-0.0013033114
0.0;9.0410374E-4
0.5;0.003124185
1.0;0.007883556
1.5;0.022444857
2.0;0.07662446
2.5;0.23701362
3.0;0.39724752
3.5;0.45136952
4.0;0.46597588
4.5;0.47075212
5.0;0.47277117
5.5;0.47403178
6.0;0.47531915
6.5;0.4771501
7.0;0.48015225
7.5;0.48542544
8.0;0.49519345
8.5;0.5141217
9.0;0.55123395
9.5;0.6184223
10.0;0.7144325
10.5;0.80861336
11.0;0.8724126
11.5;0.90693456
12.0;0.9243467
12.5;0.933276
13.0;0.9380695
13.5;0.9407644
14.0;0.9423368
14.5;0.9432789
15.0;0.94385415
15.5;0.94420946
16.0;0.94443077
16.5;0.94456935
17.0;0.94465625
17.5;0.9447111
18.0;0.9447456
18.5;0.94476724
19.0;0.94478095
19.5;0.9447897
20.0;0.9447952
20.5;0.9447986
21.0;0.9448008
21.5;0.94480217
22.0;0.94480306
22.5;0.9448036
23.0;0.944804
23.5;0.9448042
24.0;0.9448043
24.5;0.9448045
